time,current position,reference position
17.123,0.0,0
17.127,0.0,0
17.135,0.0,-0.25
17.146,-0.0018999999999997907,-0.25
17.155,-0.0036999999999995925,-0.25
17.165,-0.005699999999999372,-0.25
17.175,-0.007699999999999152,-0.25
17.185,-0.009699999999998932,-0.25
17.196,-0.011699999999998711,-0.25
17.206,-0.01389999999999847,-0.25
17.216,-0.01589999999999825,-0.25
17.225,-0.01769999999999805,-0.25
17.235,-0.01969999999999783,-0.25
17.256,-0.0226999999999975,-0.25
17.267,-0.025099999999997236,-0.25
17.28,-0.02769999999999695,-0.25
17.288,-0.029899999999996707,-0.25
17.294,-0.031099999999996575,-0.25
17.297,-0.032099999999996465,-0.25
17.307,-0.033899999999996266,-0.25
17.316,-0.03569999999999607,-0.25
17.335,-0.03869999999999574,-0.25
17.345,-0.040899999999995496,-0.25
17.351,-0.04249999999999532,-0.25
17.358,-0.04409999999999514,-0.25
17.367,-0.045899999999994945,-0.25
17.376,-0.047899999999994725,-0.25
17.386,-0.049699999999994526,-0.25
17.396,-0.051699999999994306,-0.25
17.405,-0.053699999999994086,-0.25
17.416,-0.055899999999993844,-0.25
17.426,-0.05789999999999362,-0.25
17.445,-0.060699999999993315,-0.25
17.456,-0.06289999999999307,-0.25
17.465,-0.06529999999999281,-0.25
17.47,-0.06649999999999268,-0.25
17.478,-0.0680999999999925,-0.25
17.487,-0.0698999999999923,-0.25
17.496,-0.07189999999999208,-0.25
17.505,-0.07369999999999188,-0.25
17.516,-0.07589999999999164,-0.25
17.525,-0.07769999999999144,-0.25
17.535,-0.07969999999999122,-0.25
17.545,-0.081699999999991,-0.25
17.556,-0.08389999999999076,-0.25
17.565,-0.08569999999999056,-0.25
17.576,-0.08789999999999032,-0.25
17.586,-0.08969999999999012,-0.25
17.596,-0.09189999999998988,-0.25
17.605,-0.09369999999998968,-0.25
17.616,-0.09589999999998944,-0.25
17.625,-0.09769999999998924,-0.25
17.635,-0.09969999999998902,-0.25
17.645,-0.1016999999999888,-0.25
17.656,-0.10369999999998858,-0.25
17.666,-0.10589999999998834,-0.25
17.676,-0.10789999999998812,-0.25
17.686,-0.1098999999999879,-0.25
17.696,-0.1116999999999877,-0.25
17.706,-0.11389999999998746,-0.25
17.716,-0.11569999999998726,-0.25
17.726,-0.11789999999998702,-0.25
17.736,-0.1198999999999868,-0.25
17.746,-0.1216999999999866,-0.25
17.756,-0.12369999999998638,-0.25
17.766,-0.12589999999998613,-0.25
17.776,-0.1278999999999859,-0.25
17.786,-0.1298999999999857,-0.25
17.796,-0.13189999999998547,-0.25
17.806,-0.13369999999998528,-0.25
17.817,-0.13589999999998503,-0.25
17.826,-0.1378999999999848,-0.25
17.835,-0.13969999999998461,-0.25
17.846,-0.1416999999999844,-0.25
17.856,-0.14369999999998417,-0.25
17.867,-0.14589999999998393,-0.25
17.876,-0.1478999999999837,-0.25
17.886,-0.1498999999999835,-0.25
17.896,-0.1516999999999833,-0.25
17.906,-0.15389646399998314,-0.25
17.917,-0.15588429967387407,-0.25
17.927,-0.15785497430169282,-0.25
17.936,-0.15961103492376338,-0.25
17.948,-0.1619166033009669,-0.25
17.958,-0.16362464948116107,-0.25
17.967,-0.16548775303977115,-0.25
17.977,-0.16731750450065563,-0.25
17.987,-0.16911279646383148,-0.25
17.996,-0.17069837070763527,-0.25
18.006,-0.1724265208368767,-0.25
18.017,-0.17430445840570563,-0.25
18.027,-0.17598315092636208,-0.25
18.036,-0.17760169447934282,-0.25
18.047,-0.17918273561078668,-0.25
18.057,-0.18073019059761886,-0.25
18.067,-0.1822478608081357,-0.25
18.077,-0.1837363194936632,-0.25
18.086,-0.18519253779800016,-0.25
18.096,-0.18647545498086493,-0.25
18.106,-0.18787087233846456,-0.25
18.115,-0.1892382284073275,-0.25
18.125,-0.19071047245098605,-0.25
18.135,-0.1918878675103104,-0.25
18.146,-0.19316493822668357,-0.25
18.156,-0.1945422955783409,-0.25
18.166,-0.19576778788818205,-0.25
18.175,-0.19684414617594093,-0.25
18.185,-0.19801374197711197,-0.25
18.195,-0.19915969412872636,-0.25
18.206,-0.20027973736678506,-0.25
18.216,-0.20148769205257966,-0.25
18.225,-0.20245344689924827,-0.25
18.235,-0.20350042460409457,-0.25
18.246,-0.20462685937194736,-0.25
18.256,-0.20562870116788123,-0.25
18.266,-0.20660742297267531,-0.25
18.276,-0.2074710222566014,-0.25
18.286,-0.20850231158970445,-0.25
18.296,-0.2094192640019794,-0.25
18.305,-0.21022628624225348,-0.25
18.317,-0.21118842627943812,-0.25
18.326,-0.21205444266190088,-0.25
18.335,-0.2128156608750118,-0.25
18.347,-0.21371226969631918,-0.25
18.356,-0.21451258127821715,-0.25
18.366,-0.21529348478682286,-0.25
18.376,-0.21605643806557207,-0.25
18.386,-0.2168040143723251,-0.25
18.396,-0.2174624856516547,-0.25
18.407,-0.21824929069153032,-0.25
18.417,-0.21895216619533953,-0.25
18.426,-0.2196423468197759,-0.25
18.436,-0.22024953654814472,-0.25
18.447,-0.22096687656451475,-0.25
18.456,-0.22154275128467393,-0.25
18.466,-0.2222298316391227,-0.25
18.476,-0.22284088796439128,-0.25
18.486,-0.2233790994244993,-0.25
18.496,-0.22402218627533088,-0.25
18.506,-0.22453354678785575,-0.25
18.516,-0.2250925729001867,-0.25
18.526,-0.2256483450583051,-0.25
18.536,-0.226238994319778,-0.25
18.546,-0.22671049663937848,-0.25
18.556,-0.2272735227374525,-0.25
18.566,-0.22777438978801,-0.25
18.576,-0.2282638805425694,-0.25
18.586,-0.22874224311114677,-0.25
18.596,-0.22921088785806498,-0.25
18.606,-0.2296642357147587,-0.25
18.616,-0.23010765177696357,-0.25
18.626,-0.23050290876409307,-0.25
18.636,-0.23097655710201104,-0.25
18.646,-0.23139780190479042,-0.25
18.657,-0.2318082032027522,-0.25
18.666,-0.232209885301373,-0.25
18.676,-0.23256348587335762,-0.25
18.686,-0.2329866432399461,-0.25
18.696,-0.23332576249297432,-0.25
18.706,-0.23372978884327633,-0.25
18.718,-0.2340896905308354,-0.25
18.728,-0.23447751132374783,-0.25
18.737,-0.23478749527375342,-0.25
18.747,-0.23512338675276578,-0.25
18.757,-0.23545192461707143,-0.25
18.767,-0.23577029541981154,-0.25
18.777,-0.23608058880323468,-0.25
18.787,-0.23638858501517412,-0.25
18.796,-0.23666067742133157,-0.25
18.806,-0.23695573013309157,-0.25
18.817,-0.23727275502234235,-0.25
18.826,-0.2375551813708081,-0.25
18.836,-0.2378026694320119,-0.25
18.846,-0.23809842609503962,-0.25
18.856,-0.23836147277355746,-0.25
18.866,-0.23859298191923584,-0.25
18.877,-0.23886938336229036,-0.25
18.886,-0.23911568240339398,-0.25
18.896,-0.23935579492746717,-0.25
18.913,-0.23965985418091673,-0.25
18.925,-0.23991392380825927,-0.25
18.935,-0.24016095105145352,-0.25
18.942,-0.24035538457150118,-0.25
18.948,-0.24048361463976842,-0.25
18.956,-0.24069392391966726,-0.25
18.966,-0.2408796769576591,-0.25
18.977,-0.24110036484608188,-0.25
18.986,-0.24129700567858392,-0.25
18.995,-0.24146947772663419,-0.25
19.005,-0.24165681209192535,-0.25
19.016,-0.241858546635777,-0.25
19.025,-0.2420202790669883,-0.25
19.036,-0.2422131067675033,-0.25
19.046,-0.24238496165721402,-0.25
19.056,-0.24255290507092786,-0.25
19.065,-0.24270075017601833,-0.25
19.075,-0.24286147650266843,-0.25
19.086,-0.2430348489879719,-0.25
19.096,-0.24318869053275227,-0.25
19.105,-0.24332406709278964,-0.25
19.116,-0.2434857644716124,-0.25
19.126,-0.24361561456220215,-0.25
19.136,-0.24377065443535706,-0.25
19.147,-0.24390846827594848,-0.25
19.156,-0.2440430374469238,-0.25
19.166,-0.24417445902199097,-0.25
19.176,-0.24429013730308347,-0.25
19.186,-0.24442859161050268,-0.25
19.195,-0.24453956615246364,-0.25
19.206,-0.24465989867845606,-0.25
19.217,-0.24478961940484378,-0.25
19.226,-0.24489354705349453,-0.25
19.236,-0.2450062532655779,-0.25
19.246,-0.24511651192428818,-0.25
19.257,-0.24523488246681935,-0.25
19.267,-0.2453401250695164,-0.25
19.277,-0.24544314662903943,-0.25
19.286,-0.24554379482201583,-0.25
19.296,-0.24564109174965942,-0.25
19.315,-0.24576492101062453,-0.25
19.326,-0.24587890839288717,-0.25
19.338,-0.2459903956560856,-0.25
19.346,-0.24609021626673266,-0.25
19.351,-0.24614259222793877,-0.25
19.357,-0.24619368304512212,-0.25
19.366,-0.24627650127921297,-0.25
19.376,-0.24634997973788253,-0.25
19.386,-0.2464380906249639,-0.25
19.395,-0.24650877957478823,-0.25
19.405,-0.24658536800095399,-0.25
19.415,-0.24666052887207623,-0.25
19.425,-0.24673402377634734,-0.25
19.436,-0.24680586203709454,-0.25
19.446,-0.2468833587661825,-0.25
19.455,-0.24694533445502342,-0.25
19.465,-0.2470125391484379,-0.25
19.475,-0.24707835744058038,-0.25
19.486,-0.24714218186724124,-0.25
19.495,-0.24720468342129576,-0.25
19.506,-0.2472727228467262,-0.25
19.516,-0.2473273796087685,-0.25
19.526,-0.24739257725602504,-0.25
19.536,-0.24745047906300344,-0.25
19.546,-0.2475069754103516,-0.25
19.555,-0.24755666011392896,-0.25
19.565,-0.2476105245274649,-0.25
19.576,-0.2476685905404874,-0.25
19.585,-0.24771510890036197,-0.25
19.595,-0.24776553016162683,-0.25
19.605,-0.24781488420488795,-0.25
19.616,-0.24786786971031627,-0.25
19.626,-0.24791507859436268,-0.25
19.636,-0.24796118367346964,-0.25
19.647,-0.24801064633253578,-0.25
19.656,-0.24804590285238737,-0.25
19.666,-0.2480936710468764,-0.25
19.676,-0.24813203449469845,-0.25
19.686,-0.24817331718079294,-0.25
19.696,-0.24821403105863982,-0.25
19.706,-0.24825881632427138,-0.25
19.716,-0.24829503471962222,-0.25
19.727,-0.24833798301867982,-0.25
19.737,-0.24837973373371725,-0.25
19.746,-0.2484127836732466,-0.25
19.756,-0.24844523371940186,-0.25
19.766,-0.24848127699319633,-0.25
19.777,-0.24852041440114037,-0.25
19.786,-0.2485515996857539,-0.25
19.796,-0.24858833207547204,-0.25
19.806,-0.24862067022198153,-0.25
19.817,-0.2486523479239373,-0.25
19.826999999999998,-0.2486840153064469,-0.25
19.836,-0.2487122164801423,-0.25
19.847,-0.24874550034689635,-0.25
19.857,-0.24877482883051494,-0.25
19.865,-0.24880063944051756,-0.25
19.876,-0.24883217310857764,-0.25
19.886,-0.2488603621405585,-0.25
19.896,-0.24888748136016314,-0.25
19.906,-0.24891135442660284,-0.25
19.916,-0.24894053261891802,-0.25
19.927,-0.24896657798293798,-0.25
19.937,-0.24899164921745975,-0.25
19.947,-0.24901848125842685,-0.25
19.957,-0.24904042594788844,-0.25
19.967,-0.2490644351476572,-0.25
19.976,-0.24908760604579205,-0.25
19.985,-0.24910786013152575,-0.25
19.994,-0.2491303528981128,-0.25
20.006,-0.24915445236346478,-0.25
20.016,-0.24917386968181598,-0.25
20.025,-0.2491950807221739,-0.25
20.036,-0.24921528598688458,-0.25
20.046,-0.2492368931468345,-0.25
20.055,-0.24925457173224808,-0.25
20.065,-0.24927421460492982,-0.25
20.076,-0.24929525777675465,-0.25
20.086,-0.24931342203842433,-0.25
20.096,-0.24932927137806504,-0.25
20.106,-0.24934688175544362,-0.25
20.116,-0.24936625317056005,-0.25
20.126,-0.24938210251020076,-0.25
20.136,-0.24940100120683484,-0.25
20.146,-0.24941719808807883,-0.25
20.155,-0.2494311772055935,-0.25
20.165,-0.24944669800137098,-0.25
20.176,-0.24946221879714847,-0.25
20.187,-0.24948084375208146,-0.25
20.197,-0.24949444255598174,-0.25
20.206,-0.24950736318733324,-0.25
20.217,-0.24952307971759047,-0.25
20.227,-0.24953692264739868,-0.25
20.236,-0.24954998713350696,-0.25
20.245,-0.24956173405038018,-0.25
20.255,-0.24957478618023932,-0.25
20.265,-0.24958783831009845,-0.25
20.276,-0.2496021956529435,-0.25
20.285,-0.24961357565472642,-0.25
20.296,-0.2496268220602147,-0.25
20.305,-0.24963765168936214,-0.25
20.316,-0.24965088790276457,-0.25
20.326,-0.24966135388300015,-0.25
20.336,-0.24967230595889855,-0.25
20.346,-0.2496843199079033,-0.25
20.356,-0.24969414950254354,-0.25
20.366,-0.24970507127436603,-0.25
20.376,-0.2497155440018073,-0.25
20.386,-0.2497253431626767,-0.25
20.397,-0.24973612223963304,-0.25
20.406,-0.24974592140050245,-0.25
20.417,-0.24975572056137185,-0.25
20.425,-0.24976453980615432,-0.25
20.436,-0.2497747691677561,-0.25
20.446,-0.24978365213636788,-0.25
20.455,-0.2497916468081185,-0.25
20.466,-0.24980052977673028,-0.25
20.476,-0.24980941274534207,-0.25
20.487,-0.249818727600698,-0.25
20.496,-0.24982659632460602,-0.25
20.506,-0.24983446504851403,-0.25
20.516,-0.24984233377242204,-0.25
20.526,-0.24985020249633005,-0.25
20.537,-0.24985807122023806,-0.25
20.547,-0.2498655777734673,-0.25
20.556,-0.2498724505280081,-0.25
20.566,-0.24987886570665752,-0.25
20.576,-0.24988430983323107,-0.25
20.587,-0.24989096376570985,-0.25
20.598,-0.24989822260114125,-0.25
20.606,-0.24990245692180957,-0.25
20.617,-0.24990911085428835,-0.25
20.627,-0.24991515988381452,-0.25
20.636,-0.2499212089133407,-0.25
20.647,-0.24992679486387015,-0.25
20.656,-0.2499319177354038,-0.25
20.666,-0.24993704060693744,-0.25
20.677,-0.2499421634784711,-0.25
20.686,-0.24994728635000474,-0.25
20.696,-0.24995240922153839,-0.25
20.706,-0.24995701980591867,-0.25
20.716,-0.24996265496460568,-0.25
20.726,-0.24996726554898596,-0.25
20.736,-0.2499723884205196,-0.25
20.747,-0.24997802357920662,-0.25
20.757,-0.24998314645074027,-0.25
20.766,-0.24998775703512055,-0.25
20.784,-0.24999492905526766,-0.25
20.796,-0.2500008656000967,-0.25
20.805,-0.25000527552433804,-0.25
20.811,-0.25000794763002987,-0.25
20.817,-0.2500106197357217,-0.25
20.826999999999998,-0.25001443702956716,-0.25
20.837,-0.2500182543234126,-0.25
20.847,-0.2500220716172581,-0.25
20.856,-0.25002588891110356,-0.25
20.865,-0.2500293244755645,-0.25
20.876,-0.25003314176940994,-0.25
20.886,-0.2500369590632554,-0.25
20.896,-0.2500411580864854,-0.25
20.906,-0.25004459365094633,-0.25
20.916,-0.25004879267417635,-0.25
20.926,-0.2500526099680218,-0.25
20.936,-0.25005604553248273,-0.25
20.947,-0.25006024455571274,-0.25
20.956,-0.2500637002522419,-0.25
20.965,-0.2500662418677806,-0.25
20.976,-0.2500693360103201,-0.25
20.986,-0.2500718675814888,-0.25
20.996,-0.2500749617240283,-0.25
21.005,-0.250077493295197,-0.25
21.016,-0.25008058743773653,-0.25
21.026,-0.25008340029459064,-0.25
21.036,-0.25008621315144475,-0.25
21.046,-0.25008902600829885,-0.25
21.056,-0.25009155757946755,-0.25
21.066,-0.25009437043632166,-0.25
21.078,-0.2500972044815821,-0.25
21.087,-0.25009892397830313,-0.25
21.096,-0.25010064347502414,-0.25
21.106,-0.2501025540269364,-0.25
21.116,-0.25010465563403983,-0.25
21.126,-0.25010656618595206,-0.25
21.136,-0.25010828568267307,-0.25
21.146,-0.2501103872897765,-0.25
21.157,-0.25011229784168876,-0.25
21.166,-0.250114208393601,-0.25
21.176,-0.2501161189455132,-0.25
21.185,-0.25011783844223423,-0.25
21.195,-0.25011974899414646,-0.25
21.205,-0.2501216595460587,-0.25
21.215,-0.2501235700979709,-0.25
21.225,-0.25012548064988316,-0.25
21.236,-0.2501275822569866,-0.25
21.246,-0.25012949280889885,-0.25
21.255,-0.25013121230561985,-0.25
21.265,-0.2501331228575321,-0.25
21.278,-0.25013522446463554,-0.25
21.286,-0.2501371350165478,-0.25
21.297,-0.25013904556846,-0.25
21.307,-0.25014095612037224,-0.25
21.316,-0.25014286667228447,-0.25
21.327,-0.2501447772241967,-0.25
21.337,-0.25014668777610893,-0.25
21.348,-0.25014859832802117,-0.25
21.357,-0.2501505088799334,-0.25
21.367,-0.25015241943184563,-0.25
21.377,-0.25015432998375786,-0.25
21.386,-0.2501562405356701,-0.25
21.396,-0.2501575974862824,-0.25
21.406,-0.2501586013843333,-0.25
21.416,-0.2501594145157815,-0.25
21.427,-0.25016040834310704,-0.25
21.436,-0.2501613118224939,-0.25
21.447,-0.25016221530188076,-0.25
21.455,-0.25016302843332894,-0.25
21.465,-0.2501639319127158,-0.25
21.475,-0.25016483539210266,-0.25
21.486,-0.2501658292194282,-0.25
21.496,-0.25016673269881506,-0.25
21.506,-0.2501676361782019,-0.25
21.515,-0.2501684493096501,-0.25
21.526,-0.25016935278903696,-0.25
21.536,-0.2501703466163625,-0.25
21.546,-0.2501711597478107,-0.25
21.556,-0.2501721535751362,-0.25
21.566,-0.2501729667065844,-0.25
21.576,-0.25017396053390994,-0.25
21.586,-0.2501748640132968,-0.25
21.595,-0.250175677144745,-0.25
21.606,-0.25017658062413184,-0.25
21.616,-0.2501775744514574,-0.25
21.626,-0.25017847793084425,-0.25
21.636,-0.2501792910622924,-0.25
21.645,-0.2501801945416793,-0.25
21.655,-0.25018109802106614,-0.25
21.665,-0.250182001500453,-0.25
21.676,-0.25018290497983986,-0.25
21.686,-0.2501838988071654,-0.25
21.696,-0.2501847119386136,-0.25
21.706,-0.2501857057659391,-0.25
21.716,-0.2501865188973873,-0.25
21.726,-0.25018742237677416,-0.25
21.736,-0.2501884162040997,-0.25
21.746,-0.2501892293355479,-0.25
21.756,-0.2501902231628734,-0.25
21.766,-0.2501911266422603,-0.25
21.776,-0.25019193977370846,-0.25
21.786,-0.250192933601034,-0.25
21.796,-0.25019383708042087,-0.25
21.806,-0.25019465021186904,-0.25
21.816,-0.2501956440391946,-0.25
21.825,-0.25019645717064276,-0.25
21.836,-0.2501974509979683,-0.25
21.846,-0.2501982641294165,-0.25
21.855,-0.25019916760880334,-0.25
21.866,-0.2502000710881902,-0.25
21.877,-0.25020106491551575,-0.25
21.886,-0.2502019683949026,-0.25
21.896,-0.25020287187428947,-0.25
21.906,-0.25020368500573764,-0.25
21.915,-0.2502045884851245,-0.25
21.926,-0.25020558231245005,-0.25
21.937,-0.25020602629921607,-0.25
21.947,-0.25020601079335947,-0.25
21.957,-0.25020599528750287,-0.25
21.967,-0.25020597978164627,-0.25
21.976,-0.25020596582637533,-0.25
21.986,-0.2502059487699331,-0.25
21.997,-0.2502059332640765,-0.25
22.006,-0.25020591930880554,-0.25
22.017,-0.2502059022523633,-0.25
22.026,-0.2502058867465067,-0.25
22.036,-0.25020587279123574,-0.25
22.046,-0.25020585728537914,-0.25
22.056,-0.2502058402289369,-0.25
22.066,-0.25020582627366594,-0.25
22.077,-0.250205807666638,-0.25
22.086,-0.2502057937113671,-0.25
22.097,-0.2502057782055105,-0.25
22.106,-0.25020576425023955,-0.25
22.116,-0.2502057471937973,-0.25
22.126,-0.25020573323852635,-0.25
22.137,-0.25020571463149843,-0.25
22.146,-0.25020570222681315,-0.25
22.156,-0.25020568672095655,-0.25
22.166,-0.2502056696645143,-0.25
22.176,-0.2502056541586577,-0.25
22.186,-0.2502056386528011,-0.25
22.196,-0.2502056231469445,-0.25
22.206,-0.25020560919167356,-0.25
22.216,-0.2502055921352313,-0.25
22.226,-0.2502055766293747,-0.25
22.236,-0.25020556267410377,-0.25
22.247,-0.2502055456176615,-0.25
22.256,-0.25020553166239057,-0.25
22.266,-0.25020551615653397,-0.25
22.276,-0.2502054991000917,-0.25
22.286,-0.2502054835942351,-0.25
22.296,-0.2502054696389642,-0.25
22.307,-0.2502054525825219,-0.25
22.316,-0.2502054370766653,-0.25
22.326,-0.2502054231213944,-0.25
22.336,-0.2502054060649521,-0.25
22.346,-0.2502053905590955,-0.25
22.355,-0.2502053766038246,-0.25
22.366,-0.250205361097968,-0.25
22.377,-0.2502053440415257,-0.25
22.387,-0.2502053285356691,-0.25
22.396,-0.2502053130298125,-0.25
22.406,-0.2502052990745416,-0.25
22.416,-0.250205283568685,-0.25
22.426,-0.2502052680628284,-0.25
22.445,-0.25020524635462915,-0.25
22.456,-0.25020522774760123,-0.25
22.468,-0.2502052091405733,-0.25
22.476,-0.2502051936347167,-0.25
22.481,-0.2502051827806171,-0.25
22.487,-0.25020517347710314,-0.25
22.497,-0.25020515797124654,-0.25
22.507,-0.25020514246538994,-0.25
22.515,-0.250205128510119,-0.25
22.525,-0.2502051130042624,-0.25
22.535,-0.2502050974984058,-0.25
22.545,-0.2502050819925492,-0.25
22.556,-0.2502050664866926,-0.25
22.565,-0.250205050980836,-0.25
22.575,-0.2502050354749794,-0.25
22.585,-0.2502050199691228,-0.25
22.596,-0.2502050044632662,-0.25
22.606,-0.25020498740682395,-0.25
22.615,-0.250204973451553,-0.25
22.625,-0.2502049579456964,-0.25
22.636,-0.25020494088925416,-0.25
22.646,-0.2502049269339832,-0.25
22.656,-0.2502049114281266,-0.25
22.666,-0.25020489437168436,-0.25
22.676,-0.25020487886582776,-0.25
22.686,-0.2502048649105568,-0.25
22.696,-0.25020484785411456,-0.25
22.706,-0.2502048338988436,-0.25
22.717,-0.25020481684240137,-0.25
22.726,-0.25020480288713043,-0.25
22.736,-0.25020478583068817,-0.25
22.746,-0.25020477032483157,-0.25
22.756,-0.250204754818975,-0.25
22.766,-0.25020474086370403,-0.25
22.776,-0.2502047238072618,-0.25
22.786,-0.2502047083014052,-0.25
22.797,-0.2502046927955486,-0.25
22.807,-0.250204677289692,-0.25
22.816,-0.25020466333442104,-0.25
22.825,-0.25020464782856444,-0.25
22.836,-0.2502046307721222,-0.25
22.846,-0.2502046152662656,-0.25
22.855,-0.25020460131099465,-0.25
22.866,-0.2502045842545524,-0.25
22.876,-0.2502045687486958,-0.25
